Index,V1,V2,Noise
0,384,374,365
1,373,370,363
2,357,367,362
3,341,363,361
4,336,359,357
5,357,358,357
6,383,392,378
7,376,373,357
8,424,386,372
9,373,390,379
10,352,377,374
11,395,364,373
12,375,410,391
13,415,377,382
14,334,388,380
15,435,386,375
16,344,373,370
17,401,364,371
18,385,364,375
19,371,392,381
20,386,375,365
21,383,385,362
22,362,329,357
23,363,397,379
24,322,387,377
25,424,340,367
26,391,361,355
27,343,393,370
28,417,363,365
29,322,368,370
30,532,373,372
31,503,407,388
32,340,368,371
33,277,366,370
34,377,342,355
35,427,357,367
36,361,381,386
37,348,391,383
38,305,370,370
39,308,367,346
40,308,368,375
41,361,398,364
42,396,361,371
43,302,378,345
44,383,362,351
45,330,402,373
46,349,357,363
47,437,376,363
48,291,312,339
49,424,363,351
50,382,380,348
51,384,377,362
52,395,334,349
53,312,369,349
54,386,382,349
55,384,378,360
56,373,369,356
57,346,366,357
58,335,379,374
59,381,347,343
60,352,400,376
61,371,344,353
62,372,386,373
63,362,354,351
64,343,349,363
65,349,382,368
66,439,350,349
67,372,380,366
68,371,352,359
69,401,365,349
70,348,355,356
71,419,368,355
72,293,335,330
73,418,365,347
74,331,343,346
75,403,247,316
76,339,424,358
77,409,371,359
78,385,351,364
79,394,365,332
80,351,365,362
81,349,352,356
82,328,337,347
83,371,369,348
84,394,325,354
85,337,373,353
86,369,356,349
87,318,360,353
88,396,339,341
89,384,352,332
90,370,349,353
91,348,370,351
92,331,357,354
93,404,345,331
94,349,333,343
95,422,381,343
96,287,345,359
97,385,350,343
98,336,324,338
99,399,349,332
100,372,350,338
101,328,345,325
102,366,380,355
103,392,359,352
104,355,343,353
105,395,322,331
106,321,363,360
107,388,340,357
108,366,371,362
109,406,341,357
110,309,374,359
111,433,339,361
112,327,367,338
113,379,347,354
114,351,365,343
115,331,367,352
116,366,369,339
117,408,341,359
118,348,379,359
119,334,358,362
120,318,361,345
121,357,371,350
122,315,379,349
123,360,329,339
124,332,345,333
125,344,297,293
126,341,442,387
127,306,317,346
128,374,382,366
129,403,373,364
130,364,296,319
131,299,380,359
132,373,272,332
133,306,409,362
134,342,334,361
135,305,371,356
136,355,338,345
137,328,344,325
138,318,369,339
139,359,352,330
140,352,361,364
141,391,377,361
142,281,372,368
143,355,341,323
144,342,384,374
145,319,394,375
146,385,331,362
147,340,389,373
148,315,330,364
149,367,386,361
150,285,371,369
151,384,385,371
152,350,352,359
153,359,405,375
154,364,364,365
155,338,367,372
156,306,406,383
157,335,388,388
158,409,373,363
159,364,385,377
160,350,345,371
161,277,365,361
162,378,394,384
163,287,387,385
164,395,382,378
165,341,347,368
166,357,369,356
167,353,369,378
168,373,386,372
169,335,343,368
170,383,379,355
171,341,370,366
172,432,366,359
173,298,373,361
174,449,363,354
175,289,364,365
176,372,392,379
177,357,376,381
178,338,360,367
179,325,345,366
180,432,381,366
181,309,384,369
182,360,343,357
183,371,340,357
184,386,377,364
185,399,365,363
186,283,359,357
187,136,360,355
188,256,359,353
189,172,359,347
190,0,356,353
191,440,0,180
192,352,323,271
193,358,323,297
194,358,321,304
195,355,325,307
196,357,324,315
197,357,326,318
198,356,326,319
199,358,326,321
200,357,328,322
201,357,330,324
202,358,331,325
203,358,331,326
204,358,331,326
205,358,332,327
206,356,333,327
207,243,486,390
208,300,411,369
209,194,347,341
210,229,298,303
211,234,335,320
212,247,313,314
213,230,330,302
214,270,245,272
215,280,258,241
216,236,186,205
217,264,219,198
218,231,228,213
219,292,200,217
220,268,202,214
221,248,206,203
222,268,168,178
223,201,271,232
224,131,270,248
225,148,285,281
226,188,329,295
227,146,310,301
228,107,367,333
229,71,334,342
230,159,392,356
231,154,349,342
232,161,296,351
233,196,414,375
234,158,380,374
235,203,449,403
236,101,474,440
237,122,466,447
238,98,479,461
239,127,487,456
240,145,521,491
241,175,563,512
242,100,566,530
243,200,563,532
244,148,558,532
245,150,578,554
246,134,569,561
247,180,581,571
248,193,644,621
249,206,607,600
250,155,646,624
251,180,629,623
252,164,613,617
253,196,662,631
254,199,629,610
255,189,654,644
256,257,636,611
257,206,679,656
258,206,683,650
259,232,646,652
260,261,673,655
261,227,599,635
262,234,710,663
263,253,638,639
264,229,678,652
265,179,663,638
266,183,640,648
267,273,667,642
268,193,628,637
269,278,657,637
270,314,627,624
271,205,643,624
272,239,606,606
273,296,620,604
274,291,637,601
275,278,598,605
276,306,605,591
277,336,581,581
278,329,576,557
279,301,569,565
280,290,586,555
281,295,540,545
282,370,574,551
283,340,560,542
284,336,522,527
285,319,560,532
286,391,486,514
287,326,520,522
288,398,507,502
289,345,532,507
290,400,488,492
291,410,471,473
292,389,501,482
293,429,466,481
294,436,481,465
295,404,457,457
296,361,454,437
297,392,415,447
298,396,457,454
299,434,426,443
300,429,437,440
301,469,393,401
302,431,363,400
303,436,308,379
304,409,459,410
305,419,420,394
306,549,347,375
307,327,358,363
308,319,357,360
309,271,356,354
310,38,357,349
311,451,369,363
312,501,359,353
313,124,358,352
314,444,357,355
315,461,358,359
316,710,358,359
317,648,357,358
318,333,357,355
319,284,357,353
320,310,358,353
321,298,358,354
322,416,339,349
323,333,404,384
324,523,423,413
325,524,414,402
326,517,421,402
327,473,358,362
328,495,294,377
329,380,349,354
330,463,394,373
331,403,388,380
332,432,393,404
333,501,455,419
334,479,430,421
335,511,442,423
336,474,409,421
337,480,409,414
338,514,407,361
339,512,474,430
340,510,453,430
341,492,427,430
342,480,434,420
343,458,406,418
344,479,429,430
345,492,422,423
346,507,440,440
347,445,467,441
348,478,444,440
349,475,449,438
350,422,400,416
351,464,477,443
352,420,422,431
353,411,427,427
354,433,431,422
355,479,393,402
356,428,410,412
357,391,376,402
358,402,433,408
359,450,377,393
360,410,382,382
361,395,405,382
362,416,389,393
363,397,382,389
364,413,404,383
365,351,381,379
366,365,389,372
367,398,385,379
368,319,335,367
369,416,417,385
370,365,409,393
371,411,369,384
372,361,381,383
373,379,370,392
374,343,383,371
375,413,391,392
376,384,373,377
377,373,394,383
378,357,377,369
379,374,355,367
380,446,374,368
381,410,381,377
382,345,386,370
383,407,373,361
384,353,359,368
385,355,383,366
386,380,347,357
387,325,370,360
388,324,339,353
389,382,399,371
390,376,370,361
391,351,370,364
392,373,331,353
393,335,359,350
394,356,370,374
395,329,379,357
396,397,359,363
397,308,371,350
398,382,332,341
399,362,392,350
400,371,335,371
401,415,388,368
402,271,345,347
403,412,376,356
404,343,315,329
405,431,379,353
406,264,327,338
407,387,367,348
408,289,355,342
409,327,336,348
410,360,338,345
411,392,315,341
412,365,368,347
413,289,349,351
414,366,339,337
415,335,350,341
416,380,326,328
417,339,387,341
418,338,345,353
419,305,362,353
420,343,339,348
421,344,347,343
422,335,331,314
423,331,345,325
424,409,333,351
425,290,364,357
426,378,353,353
427,332,361,350
428,470,321,342
429,361,321,309
430,397,312,301
431,314,350,350
432,369,361,340
433,390,345,343
434,345,316,309
435,388,302,343
436,345,363,343
437,388,313,338
438,273,369,349
439,399,341,341
440,366,338,345
441,386,276,333
442,372,347,335
443,336,373,346
444,333,350,351
445,344,370,356
446,338,322,353
447,411,325,316
448,430,375,332
449,367,349,360
450,363,390,362
451,366,349,351
452,339,370,356
453,345,359,352
454,438,359,355
455,445,360,354
456,147,355,352
457,259,666,188
458,349,296,279
459,358,339,308
460,359,334,321
461,361,336,327
462,356,337,330
463,360,336,331
464,357,337,333
465,357,339,334
466,357,339,334
467,358,340,335
468,357,341,335
469,358,341,335
470,357,341,336
471,358,343,337
472,357,342,337
473,274,299,295
474,328,185,219
475,291,145,167
476,183,135,169
477,173,67,100
478,148,275,188
479,161,224,206
480,237,202,200
481,229,194,197
482,230,127,171
483,280,185,182
484,271,170,170
485,244,180,175
486,169,205,191
487,196,195,189
488,219,213,213
489,217,236,233
490,145,250,245
491,252,269,260
492,156,313,290
493,211,335,306
494,171,335,323
495,130,377,344
496,212,344,345
497,180,388,371
498,130,384,371
499,216,376,379
500,165,427,397
501,160,380,391
502,201,451,427
503,210,450,428
504,143,415,433
505,160,508,467
506,184,465,457
507,172,512,481
508,140,491,466
509,199,517,491
510,169,502,487
511,191,516,505
512,188,529,512
513,219,512,509
514,223,538,521
515,146,512,509
516,204,532,522
517,234,568,542
518,234,546,543
519,199,555,537
520,225,561,549
521,214,537,536
522,264,586,554
523,280,555,548
524,221,551,548
525,261,575,552
526,292,549,548
527,301,558,560
528,215,594,564
529,302,544,552
530,304,563,552
531,193,555,547
532,311,540,540
533,311,567,541
534,263,545,533
535,341,555,543
536,287,540,528
537,285,525,535
538,308,530,507
539,369,553,533
540,285,527,525
541,332,496,512
542,321,534,514
543,307,501,508
544,308,523,520
545,355,500,503
546,381,523,493
547,326,507,502
548,373,512,501
549,356,506,499
550,354,486,489
551,406,502,490
552,404,472,477
553,390,498,485
554,375,475,467
555,399,470,478
556,389,463,467
557,380,469,464
558,426,434,444
559,438,452,458
560,408,398,423
561,391,451,437
562,412,433,421
563,397,429,416
564,439,426,415
565,385,383,405
566,410,407,404
567,400,384,400
568,440,405,397
569,417,380,386
570,457,382,385
571,439,389,385
572,409,399,384
573,491,368,374
574,459,370,377
575,464,363,358
576,460,382,369
577,458,377,371
578,524,373,366
579,402,363,357
580,457,373,359
581,460,339,341
582,448,342,350
583,521,379,355
584,473,339,358
585,440,356,345
586,413,359,347
587,439,345,338
588,445,353,338
589,459,324,329
590,448,359,348
591,425,344,342
592,403,353,344
593,369,333,332
594,509,328,332
595,413,315,301
596,432,362,332
597,459,329,332
598,380,344,320
599,397,310,322
600,410,347,323
601,414,314,316
602,467,346,326
603,412,305,316
604,437,351,333
605,419,320,320
606,375,338,334
607,391,313,318
608,377,316,305
609,423,322,309
610,386,297,311
611,452,317,310
612,402,327,310
613,391,320,314
614,379,312,309
615,431,292,300
616,401,321,303
617,375,334,320
618,399,309,320
619,389,332,320
620,366,305,317
621,391,319,322
622,415,327,313
623,394,319,310
624,405,344,311
625,408,303,312
626,361,332,324
627,364,320,317
628,363,333,316
629,436,319,316
630,381,314,305
631,372,321,299
632,375,321,317
633,344,335,311
634,407,315,319
635,316,327,313
636,360,308,315
637,333,318,317
638,332,296,316
639,384,333,319
640,323,325,320
641,387,307,317
642,343,330,320
643,366,309,313
644,338,283,300
645,320,368,334
646,395,291,331
647,337,347,334
648,310,327,336
649,420,332,319
650,355,321,322
651,370,371,346
652,320,347,343
653,398,347,344
654,359,331,318
655,350,344,347
656,357,351,333
657,345,348,352
658,369,366,353
659,378,348,346
660,370,342,341
661,347,336,343
662,346,351,349
663,350,362,350
664,345,335,341
665,407,341,329
666,381,329,324
667,325,356,349
668,355,353,346
669,443,352,349
670,406,349,337
671,365,328,332
672,352,331,353
673,397,348,336
674,363,335,357
675,405,386,357
676,376,336,347
677,367,362,351
678,283,358,353
679,518,359,354
680,365,359,351
681,220,360,350
682,149,0,155
683,355,140,219
684,357,310,265
685,358,299,282
686,358,301,291
687,357,303,296
688,356,305,298
689,358,306,300
690,357,307,302
691,357,309,304
692,358,310,305
693,414,709,512
694,0,591,265
695,713,0,128
696,703,94,154
697,302,236,198
698,367,229,215
699,356,233,225
700,358,238,231
701,357,241,235
702,358,245,239
703,357,247,242
704,357,250,245
705,359,253,248
706,358,234,246
707,357,259,251
708,357,262,255
709,358,264,259
710,358,265,262
711,432,269,265
712,446,272,268
713,506,274,270
714,508,275,273
715,496,278,276
716,589,281,278
717,565,283,280
718,646,284,283
719,562,286,285
720,542,289,287
721,592,287,276
722,595,237,238
723,581,194,201
724,565,147,164
725,561,83,113
726,539,111,104
727,509,30,68
728,513,39,50
729,525,0,27
730,513,48,80
731,481,287,203
732,525,286,249
733,531,289,270
734,503,291,279
735,522,293,285
736,470,295,289
737,437,297,292
738,477,299,295
739,479,300,296
740,455,302,296
741,419,303,298
742,417,304,301
743,443,306,301
744,353,308,303
745,380,309,303
746,391,237,258
747,359,175,193
748,362,130,145
749,423,28,82
750,310,31,46
751,354,0,25
752,301,0,12
753,295,0,9
754,352,0,5
755,287,0,4
756,283,0,3
757,280,0,2
758,276,0,3
759,291,0,2
760,309,0,2
761,252,0,1
762,223,0,1
763,275,0,1
764,234,0,1
765,210,0,1
766,253,0,2
767,212,0,2
768,234,0,1
769,211,0,1
770,202,0,1
771,201,0,1
772,206,0,1
773,171,0,0
774,247,0,1
775,154,0,1
776,167,0,1
777,132,0,0
778,131,0,1
779,90,0,0
780,142,0,5
781,111,68,43
782,117,102,71
783,66,143,117
784,105,172,137
785,29,204,190
786,0,262,227
787,39,255,249
788,0,313,300
789,8,365,340
790,86,369,349
791,0,420,387
792,0,448,421
793,0,475,454
794,0,505,476
795,0,543,518
796,0,570,535
797,0,577,570
798,0,645,610
799,0,642,628
800,0,678,648
801,0,685,670
802,0,708,681
803,0,709,689
804,0,712,693
805,0,713,695
806,0,712,696
807,0,712,696
808,0,713,698
809,0,713,697
810,0,712,698
811,0,714,698
812,0,713,698
813,0,712,698
814,0,714,699
815,0,714,699
816,42,712,699
817,2,713,699
818,0,714,699
819,44,713,699
820,44,713,699
821,45,713,698
822,81,714,698
823,108,714,699
824,76,713,699
825,70,713,699
826,157,713,700
827,127,715,699
828,152,713,699
829,179,713,699
830,175,713,700
831,183,713,700
832,187,713,701
833,215,713,700
834,160,713,700
835,263,713,700
836,197,713,701
837,245,713,700
838,246,712,701
839,265,713,700
840,287,713,701
841,281,713,701
842,266,714,701
843,273,712,701
844,323,713,700
845,312,713,702
846,299,713,702
847,324,712,701
848,328,711,701
849,311,711,700
850,382,711,700
851,335,710,698
852,446,664,681
853,374,682,663
854,367,637,646
855,330,641,644
856,472,611,614
857,386,627,615
858,417,606,597
859,461,587,589
860,389,569,564
861,447,561,567
862,468,553,543
863,444,542,527
864,444,524,530
865,462,524,509
866,420,480,509
867,518,479,484
868,481,451,480
869,477,476,468
870,456,443,456
871,495,451,449
872,496,419,438
873,494,438,426
874,488,415,417
875,492,418,404
876,545,403,392
877,536,398,393
878,475,371,374
879,527,363,367
880,529,357,359
881,511,367,362
882,520,344,346
883,540,332,336
884,496,349,347
885,525,318,331
886,522,339,334
887,564,326,328
888,537,301,321
889,507,295,305
890,524,320,309
891,482,289,297
892,468,311,311
893,560,288,299
894,445,257,284
895,477,294,292
896,491,279,278
897,478,300,282
898,420,278,278
899,478,264,271
900,443,289,282
901,501,267,279
902,439,271,273
903,453,271,273
904,464,272,263
905,459,255,262
906,457,277,267
907,489,259,272
908,416,263,266
909,466,271,265
910,428,258,261
911,410,256,254
912,420,259,257
913,400,236,266
914,452,248,256
915,404,262,260
916,442,254,256
917,387,251,256
918,409,263,262
919,384,238,242
920,417,271,258
921,433,305,303
922,322,361,331
923,390,359,346
924,516,357,347
925,171,356,349
926,287,709,157
927,222,0,78
928,480,0,68
929,331,254,183
930,364,259,225
931,359,261,245
932,357,265,255
933,357,267,260
934,356,269,264
935,375,391,315
936,305,58,220
937,367,74,141
938,357,201,173
939,357,266,224
940,358,305,267
941,359,335,304
942,358,348,326
943,356,347,329
944,357,330,323
945,356,327,320
946,355,330,322
947,356,336,326
948,357,343,333
949,357,350,339
950,356,356,347
951,364,354,345
952,240,273,298
953,62,169,220
954,0,101,155
955,0,62,105
956,0,37,69
957,0,22,44
958,0,11,27
959,0,6,16
960,0,1,9
961,0,0,4
962,0,0,2
963,0,0,1
964,0,0,1
965,0,0,1
966,0,1,2
967,0,2,2
968,0,3,3
969,0,4,4
970,0,4,5
971,0,5,7
972,0,6,6
973,0,5,7
974,0,6,7
975,0,5,7
976,0,5,7
977,0,3,5
978,0,2,5
979,0,2,3
980,0,0,3
981,0,1,2
982,0,0,1
983,0,1,1
984,0,2,2
985,0,1,3
986,0,3,3
987,0,4,4
988,0,3,5
989,0,4,5
990,0,4,5
991,0,5,6
992,0,5,6
993,0,5,7
994,0,6,7
995,0,5,7
996,0,5,7
997,0,6,7
